rTime,time,frame,number,goodnumber,persistence,speed,speed_number,speed_std,angular,length,width,Morphwidth,midline,kink,pathlen,curve,id,bias,direction,crab,Custom,pathlenPerWorm,straightness
1,1.063,17,128,0,0,0,0,0,0,0,0,0,0,0,0,0,NaN,0,0,0,0,NaN,NaN
2,2.066,32,138,0,0,0,0,0,0,0,0,0,0,0,0,0,NaN,0,0,0,0,NaN,NaN
3,3,45,141,0,0,0,0,0,0,0,0,0,0,0,0,0,NaN,0,0,0,0,NaN,NaN
4,4.014,50,141,7,134.6,0,0,0,0,0.6875,0.1787,0.096,0.7617,41.1,0,34.8,50,1,0,0,-0.188,0,NaN
5,5.059,60,146,13,95.1,0.1658,11,0.0714,6.4,0.6348,0.1912,0.0992,0.7507,47.1,0.145,33.3,46,0.923,0,0.0164,0.31,0.0111538461538462,0.995095950371285
6,6,NaN,NaN,NaN,NaN,NaN,NaN,NaN,NaN,NaN,NaN,NaN,NaN,NaN,NaN,NaN,NaN,NaN,NaN,NaN,NaN,NaN,NaN
7,6.63,67,147,23,65.1,0.149,15,0.0588,5.6,0.7238,0.1823,0.1075,0.8288,51,0.217,36.1,70,0.87,0,0.0117,-0.045,0.00943478260869565,0.996912263706671
8,8.018,81,171,28,60.3,0.1492,26,0.0628,8,0.7339,0.1742,0.1038,0.8172,43.2,0.348,31.8,74,0.929,0,0.0092,-0.306,0.0124285714285714,0.998097076085055
9,9,NaN,NaN,NaN,NaN,NaN,NaN,NaN,NaN,NaN,NaN,NaN,NaN,NaN,NaN,NaN,NaN,NaN,NaN,NaN,NaN,NaN,NaN
10,9.531,92,169,34,61.8,0.1414,31,0.0657,10.3,0.7256,0.1891,0.1036,0.8187,45.5,0.475,33.3,82,0.941,0.004,0.0087,-0.255,0.0139705882352941,0.998105383582182
11,11.069,104,173,39,71.2,0.1357,35,0.0662,8.1,0.7136,0.1998,0.1062,0.8114,43.3,0.571,33.6,85,0.769,0,0.0109,-0.038,0.0146410256410256,0.996768787492982
12,12.037,113,180,42,95.9,0.1123,38,0.0699,6.8,0.721,0.1968,0.111,0.8233,42.4,0.554,35.5,98,0.69,0.002,0.0089,-0.097,0.0131904761904762,0.996854613236768
13,13.09,122,182,44,105.7,0.1072,41,0.0656,10.2,0.699,0.2014,0.1057,0.8092,46.1,0.599,36,105,0.75,0,0.0102,0.025,0.0136136363636364,0.995463017652775
14,14.024,132,191,48,97.3,0.0905,45,0.0644,7.2,0.6885,0.2178,0.1106,0.8041,47.1,0.625,33.5,122,0.646,0.001,0.008,-0.333,0.0130208333333333,0.996085252733594
15,15.028,143,187,45,104.6,0.0933,44,0.0671,7.2,0.7016,0.2144,0.11,0.81,46.7,0.688,34.5,110,0.578,0.033,0.0081,-0.19,0.0152888888888889,0.996224300588867
16,16.074,155,191,47,101.1,0.0962,47,0.0662,6.9,0.7103,0.2035,0.1073,0.8122,48.2,0.723,35.1,115,0.553,0,0.0085,-0.122,0.0153829787234043,0.996088819623848
17,17.045,166,193,49,99.2,0.0877,47,0.0672,6.4,0.6975,0.2129,0.1102,0.8074,51.7,0.754,33.7,120,0.51,0.01,0.0079,0.441,0.0153877551020408,0.995934549289451
18,18.042,181,192,50,101.6,0.0953,47,0.0656,6.4,0.7034,0.2168,0.1079,0.8062,45.9,0.688,34.1,128,0.4,0.03,0.0072,0.427,0.01376,0.997141947131929
19,19.047,196,195,52,100,0.0817,49,0.0657,6.6,0.691,0.2163,0.1063,0.8029,46.8,0.707,33.9,133,0.5,0.01,0.0074,-0.08,0.0135961538461538,0.995889612098958
20,20.041,211,200,52,100.5,0.0931,50,0.0622,6,0.6945,0.2141,0.106,0.8046,50,0.715,33.5,141,0.423,0.029,0.0095,-0.338,0.01375,0.994780212812567
21,21.044,226,200,53,98.7,0.0864,51,0.06,6.7,0.6795,0.2248,0.1094,0.7974,49.2,0.745,35,146,0.472,0.029,0.0078,-0.413,0.0140566037735849,0.995916624441778
22,22.046,238,200,55,105.6,0.0749,52,0.0607,6,0.6744,0.2202,0.1069,0.7978,48.9,0.755,36.5,156,0.364,0.01,0.0094,-0.033,0.0137272727272727,0.99209353512802
23,23.041,253,200,55,128.8,0.0797,52,0.0606,8,0.6742,0.202,0.1055,0.7797,50.5,0.782,34,153,0.4,0.03,0.0081,0.245,0.0142181818181818,0.994822153010696
24,24.044,267,207,55,129.6,0.0822,53,0.0649,7,0.6685,0.1996,0.1059,0.7738,52.4,0.797,33,167,0.509,0.01,0.0093,0.105,0.0144909090909091,0.993579205549544
25,25.011,281,199,54,134.6,0.0782,53,0.0559,6.3,0.689,0.1983,0.1096,0.7793,50.1,0.836,34.2,178,0.463,0,0.0092,0.035,0.0154814814814815,0.993055471537302
26,26.01,294,203,58,127.4,0.0771,54,0.0628,5.8,0.6836,0.2024,0.1074,0.7799,49,0.829,33.5,190,0.534,0.018,0.0076,0.155,0.0142931034482759,0.995129794641712
27,27.012,308,203,58,127.4,0.0839,53,0.0734,6.6,0.6802,0.2052,0.1105,0.7795,45.8,0.859,33.7,190,0.483,0.035,0.0084,0.17,0.0148103448275862,0.994975450898964
28,28.005,321,197,59,132.6,0.0814,56,0.0635,6.8,0.6677,0.2081,0.1082,0.7769,45.9,0.77,32.2,216,0.441,0.026,0.0085,-0.368,0.0130508474576271,0.994533015885144
29,29.01,335,200,56,139.5,0.0911,53,0.0647,6.1,0.6856,0.2125,0.1096,0.7919,47.1,0.847,33.6,200,0.411,0,0.0085,-0.023,0.015125,0.995637661055985
30,30.016,347,193,56,175.3,0.0786,53,0.065,5.3,0.6956,0.2117,0.1123,0.7914,49,0.847,35.9,209,0.625,0,0.0078,0.163,0.015125,0.995063861789333
31,31.008,362,200,58,170,0.0824,57,0.0665,8.3,0.6788,0.2116,0.1061,0.7889,50.4,0.887,32.2,218,0.534,0.009,0.0078,0.185,0.0152931034482759,0.995509642162645
32,32.008,377,202,63,158.6,0.0715,61,0.0681,5.1,0.6826,0.2026,0.1124,0.7722,47.8,0.864,32.5,245,0.365,0.003,0.0053,-0.314,0.0137142857142857,0.997248893097944
33,33.037,391,207,63,159.1,0.0739,62,0.0666,6.6,0.6821,0.2054,0.1057,0.7839,50,0.911,31.4,234,0.429,0.008,0.0055,-0.188,0.0144603174603175,0.99722662142642
34,34.032,401,199,66,152.7,0.0696,63,0.0562,5.3,0.6863,0.1981,0.108,0.7729,47.6,0.91,30.8,258,0.288,0.023,0.0066,-0.097,0.0137878787878788,0.995493711127385
35,35.032,411,209,66,152.5,0.069,65,0.0612,5.6,0.672,0.201,0.1064,0.7683,47.9,0.907,31.5,260,0.394,0.002,0.0078,0.019,0.0137424242424242,0.993590042232049
36,36.004,423,214,67,151.2,0.0727,66,0.0595,6.1,0.6753,0.199,0.1054,0.7696,49.1,0.927,31.2,272,0.418,0.03,0.0068,-0.084,0.0138358208955224,0.995615985017576
37,37.048,438,219,68,162.4,0.0722,68,0.0568,6,0.6676,0.2021,0.1068,0.766,45.9,0.96,31.9,273,0.368,0.022,0.0069,-0.003,0.0141176470588235,0.995422916548633
38,38.055,452,218,67,164.5,0.0684,67,0.0572,7,0.6805,0.1994,0.1047,0.773,44.8,0.993,32.1,274,0.328,0.022,0.0072,-0.01,0.0148208955223881,0.994444401457431
39,39.009,464,227,66,166.6,0.0662,65,0.0612,4.2,0.6802,0.1964,0.1079,0.7662,51,0.993,32.4,273,0.379,0.016,0.0063,0.102,0.0150454545454545,0.995461401257141
40,40.048,476,225,67,178.1,0.0694,65,0.0599,5.9,0.6596,0.2029,0.1118,0.7562,54.3,1.009,33.5,282,0.343,0.023,0.0066,0.002,0.0150597014925373,0.995467641644475
41,41.047,488,218,66,180.7,0.0651,66,0.0584,5.8,0.6609,0.2076,0.1078,0.7646,59,1.041,33.7,272,0.227,0,0.0058,0.12,0.0157727272727273,0.996023248857416
42,42.046,503,220,67,178.8,0.0563,66,0.0546,5.4,0.6634,0.2198,0.1083,0.7767,59.7,1.057,33.9,271,0.239,0.007,0.0058,0.148,0.0157761194029851,0.99467933262508
43,43.017,516,226,67,178.8,0.062,67,0.0515,6.1,0.6571,0.2164,0.1124,0.7672,61.2,1.09,34.6,271,0.313,0.008,0.0066,-0.079,0.0162686567164179,0.994317883833084
44,44.079,531,231,67,179,0.0517,65,0.0482,6.1,0.652,0.2113,0.1121,0.7745,58.2,1.11,32.9,281,0.343,0.015,0.006,-0.403,0.0165671641791045,0.993242886845881
45,45.018,542,229,65,183.9,0.0458,65,0.0502,3.7,0.6575,0.2066,0.1056,0.7765,55.5,1.122,33.3,275,0.323,0.038,0.0045,-0.116,0.0172615384615385,0.995161441139236
46,46.051,555,228,65,183.9,0.0499,64,0.049,6,0.6465,0.2213,0.1073,0.7733,56.5,1.151,33.2,275,0.231,0.018,0.0055,-0.267,0.0177076923076923,0.993907165892182
47,47.049,566,225,64,185.5,0.0529,59,0.0565,3.8,0.6596,0.2138,0.1084,0.767,54,1.162,32.5,288,0.125,0.008,0.0054,-0.324,0.01815625,0.994776254792537
48,48.046,578,210,60,198.9,0.0453,57,0.0419,4.3,0.6665,0.2269,0.112,0.7874,60.7,1.169,34.1,279,0.117,0,0.005,-0.261,0.0194833333333333,0.993889983077387
49,49.049,591,227,59,206.9,0.0443,56,0.0431,4,0.6582,0.2292,0.1084,0.7752,56.7,1.066,32.1,310,0.186,0.008,0.0048,-0.119,0.0180677966101695,0.99411257551087
50,50.05,604,225,60,203.4,0.0473,58,0.0456,4.5,0.6567,0.2314,0.107,0.7778,53.5,1.051,31.8,340,0.2,0,0.005,-0.012,0.0175166666666667,0.994397187690924
51,51.048,618,221,59,206.8,0.04,59,0.0392,4,0.659,0.2151,0.1067,0.7697,59.7,1.078,31.9,321,0.169,0,0.0035,-0.074,0.018271186440678,0.996164519544839
52,52.01,631,222,59,206.8,0.0424,58,0.0422,4.8,0.6657,0.2193,0.1074,0.7766,57.8,1.084,31.7,321,0.203,0.025,0.0043,0.09,0.0183728813559322,0.994844198173807
53,53.046,644,217,60,218.5,0.0408,58,0.0318,5.3,0.6803,0.2192,0.1079,0.7778,54.4,1.051,31.7,358,0.317,0.008,0.0044,0.043,0.0175166666666667,0.99416792230841
54,54.015,658,217,60,218.5,0.0444,59,0.046,5.3,0.6698,0.2119,0.1119,0.7621,49.9,1.067,31.1,358,0.117,0.008,0.0053,-0.058,0.0177833333333333,0.992849914970213
55,55.045,673,215,61,224.1,0.0594,60,0.0583,4.8,0.6597,0.2108,0.1079,0.7629,55.3,1.049,33.5,395,0.18,0.007,0.006,0.044,0.0171967213114754,0.994885400181312
56,56.048,687,227,62,223.2,0.048,61,0.0529,4,0.6422,0.2157,0.1088,0.7537,62.5,1.049,34.7,395,0.194,0,0.0056,-0.054,0.0169193548387097,0.993171127695972
57,57.014,701,220,62,223.2,0.0438,62,0.049,4.4,0.6496,0.2176,0.1109,0.757,54.9,1.066,32.6,395,0.161,0.009,0.0046,0.04,0.0171935483870968,0.99446981098382
58,58.015,716,224,63,223.5,0.0466,62,0.0491,4.1,0.6544,0.2106,0.1151,0.7513,51.5,1.057,33.7,397,0.127,0.002,0.0041,0.143,0.0167777777777778,0.996121991105762
59,59.015,729,225,63,222.8,0.0405,62,0.0456,7.1,0.6559,0.2168,0.1138,0.7688,57,1.05,33.8,422,0.079,0,0.0042,0.017,0.0166666666666667,0.994608235356079
60,60.081,744,219,66,213.9,0.0506,65,0.0493,4.6,0.6485,0.2144,0.1061,0.7585,53,1.025,33.8,450,0.182,0.008,0.006,-0.102,0.015530303030303,0.992944851067274
61,61.021,757,221,64,219.9,0.0463,64,0.0398,5.7,0.6555,0.2195,0.1121,0.7566,52.3,1.067,34.7,440,0.313,0.016,0.004,-0.201,0.016671875,0.996261127541514
62,62.067,771,220,65,216.8,0.0442,64,0.0458,4.6,0.6478,0.2192,0.1083,0.7612,60.9,1.072,34.7,460,0.138,0.008,0.0052,-0.272,0.0164923076923077,0.993055471537302
63,63.001,783,223,67,224.6,0.046,66,0.0495,5.8,0.6388,0.2238,0.1096,0.7509,58.5,1.055,35.1,489,0.194,0.03,0.0051,-0.068,0.0157462686567164,0.993834965931722
64,64.051,796,228,69,220.2,0.0519,65,0.0471,7.1,0.6314,0.2193,0.1099,0.7395,56,1.041,35,504,0.246,0.008,0.0058,-0.204,0.0150869565217391,0.993735972920329
65,65.103,808,232,66,227.6,0.0485,65,0.046,5.7,0.6221,0.2226,0.11,0.742,57.4,0.881,35.6,522,0.227,0.015,0.0058,-0.261,0.0133484848484848,0.992823649507914
66,66.017,818,227,65,230.6,0.0498,63,0.0445,5.4,0.624,0.2238,0.1063,0.7396,55.6,0.901,34.4,529,0.169,0.016,0.0065,-0.171,0.0138615384615385,0.991445401649462
67,67.015,831,219,64,235,0.0528,62,0.0493,5.5,0.6211,0.2199,0.1073,0.732,56.2,0.902,33.7,562,0.125,0.024,0.006,0.029,0.01409375,0.993522408836109
68,68.014,844,226,63,237.6,0.0527,61,0.052,5.4,0.6204,0.2161,0.1087,0.7322,58.7,0.89,33.8,566,0.048,0.024,0.0053,-0.088,0.0141269841269841,0.994930059828672
69,69.084,856,234,66,230.1,0.0499,65,0.052,5.3,0.6144,0.2075,0.1109,0.7204,59.1,0.867,34.9,601,0.242,0.002,0.0056,-0.221,0.0131363636363636,0.993682883554701
70,70.016,866,234,66,230.1,0.0504,64,0.0422,6.3,0.601,0.2109,0.1119,0.714,54.9,0.885,34.5,601,0.182,0.008,0.0075,-0.065,0.0134090909090909,0.988865878480789
71,71.083,878,232,64,236.1,0.0495,63,0.0439,5,0.6089,0.2183,0.1091,0.7203,48.6,0.933,35.9,612,0.203,0.008,0.0049,0.122,0.014578125,0.995088438229472
72,72.048,890,226,64,234.9,0.0365,60,0.0375,4.4,0.5864,0.2153,0.1117,0.7025,51.8,0.851,35.5,633,0.156,0,0.0038,0.087,0.013296875,0.994565831641975
73,73.084,903,222,64,235.9,0.036,61,0.0325,5.6,0.6008,0.2142,0.1098,0.7102,50.8,0.837,35.3,651,0.281,0.016,0.0042,0.108,0.013078125,0.993171127695972
74,74.051,914,228,65,232.5,0.0384,63,0.0414,5.4,0.6012,0.2168,0.1098,0.718,54.8,0.842,35.1,673,0.231,0.008,0.0057,0.045,0.0129538461538462,0.988921790938874
75,75.049,924,231,64,236.1,0.0382,62,0.0353,6.2,0.5944,0.2127,0.1083,0.7097,58.7,0.865,35.1,662,0.188,0,0.0065,-0.006,0.013515625,0.985416953471099
76,76.052,935,237,63,249.1,0.0428,63,0.0396,4.9,0.5813,0.2211,0.1114,0.7017,60.7,0.81,38.5,657,0.206,0,0.0064,-0.166,0.0128571428571429,0.988756779271933
77,77.053,945,242,66,243.8,0.0404,64,0.0455,8.6,0.5818,0.2244,0.1105,0.7102,60,0.783,35.7,708,0.212,0.015,0.0084,-0.319,0.0118636363636364,0.97814566615671
78,78.053,955,242,66,243.8,0.0392,65,0.0404,5.4,0.5793,0.2189,0.1136,0.6976,56.7,0.793,36.1,713,0.091,0.015,0.0053,-0.146,0.0120151515151515,0.990817771494774
79,79.053,965,243,65,247.3,0.0385,64,0.0412,8.5,0.5748,0.237,0.1157,0.7003,62.6,0.811,35.8,713,0.154,0.009,0.0075,-0.299,0.0124769230769231,0.980841952649309
80,80.09,976,236,66,244.4,0.0438,62,0.0444,4.8,0.577,0.228,0.111,0.7095,59.7,0.782,34.6,767,0.227,0.008,0.0058,0.047,0.0118484848484848,0.991193684107042
81,81.005,985,238,66,251.3,0.0405,64,0.0356,7.4,0.6004,0.2127,0.1085,0.7162,57.8,0.742,33,802,0.197,0.023,0.0043,0.158,0.0112424242424242,0.994347689770131
82,82.02,996,229,67,247.7,0.0374,67,0.0377,4.9,0.5946,0.2116,0.1093,0.7053,59.4,0.734,31.9,794,0.134,0.022,0.0054,0.15,0.010955223880597,0.989521583419925
83,83.018,1006,236,69,240.8,0.042,68,0.0384,4.9,0.5984,0.2051,0.105,0.7087,61.2,0.715,33.2,811,0.072,0.022,0.0045,0.095,0.0103623188405797,0.994243636219647
84,84.054,1017,233,71,234.4,0.0423,69,0.0407,9.3,0.5892,0.2102,0.1067,0.7062,61.4,0.702,34,845,0.07,0.021,0.0071,0.432,0.00988732394366197,0.985812768221061
85,85.108,1027,240,70,237.7,0.0447,70,0.0409,7,0.6034,0.2178,0.1045,0.7221,59.1,0.713,34.5,838,0.086,0.028,0.0061,0.354,0.0101857142857143,0.99064484818756
86,86.053,1037,238,70,237.7,0.0463,69,0.0388,5.4,0.5886,0.2087,0.1056,0.7112,62.1,0.719,34.1,838,0.071,0.014,0.0065,-0.032,0.0102714285714286,0.990096456698622
87,87.051,1047,238,70,237.9,0.0426,69,0.0395,6.3,0.5868,0.2061,0.1059,0.7004,62.3,0.721,33.3,840,0.057,0.021,0.006,-0.023,0.0103,0.99003164905859
88,88.086,1058,240,70,237.9,0.0409,70,0.0401,5.7,0.5783,0.2005,0.1098,0.6838,64,0.72,33.2,840,0.143,0,0.0053,-0.038,0.0102857142857143,0.991568401925184
89,89.086,1068,235,71,234.6,0.0336,71,0.0328,6.6,0.5694,0.1963,0.1088,0.6778,65.6,0.721,33.1,861,0.254,0.024,0.0061,-0.051,0.0101549295774648,0.983382154616475
90,90.021,1077,239,71,234.6,0.029,70,0.0337,3.7,0.5687,0.2,0.1062,0.6813,61.5,0.726,31.6,866,0.113,0.022,0.0041,-0.161,0.0102253521126761,0.989955499306116
91,91.017,1087,241,72,232.4,0.0375,70,0.0438,6.3,0.574,0.2009,0.1075,0.6918,58.7,0.717,32.8,871,0.139,0.026,0.0056,-0.253,0.00995833333333333,0.988786911096398
92,92.039,1097,240,69,241,0.0423,69,0.0477,8,0.5828,0.2055,0.1059,0.7,60,0.743,31.6,862,0.13,0.015,0.0064,-0.146,0.010768115942029,0.988487854484465
93,93.05,1107,236,69,241,0.0354,68,0.0329,7.7,0.5884,0.21,0.1068,0.7004,58.7,0.755,31.8,862,0.217,0.008,0.005,-0.116,0.0109420289855072,0.98997496559591
94,94.053,1117,234,69,241.2,0.0406,69,0.0376,6.7,0.5832,0.2081,0.1057,0.7002,59,0.762,31,883,0.101,0.03,0.0065,-0.266,0.0110434782608696,0.987101040015553
95,95.018,1127,234,71,243.5,0.0432,70,0.0449,5.8,0.594,0.2139,0.1016,0.7197,61.5,0.756,33.4,870,0.254,0.015,0.0049,-0.192,0.0106478873239437,0.993546455545913
96,96.019,1137,236,74,247.4,0.0416,69,0.0409,7.2,0.587,0.2188,0.1038,0.7118,57.9,0.74,33.4,910,0.311,0,0.0075,-0.094,0.01,0.983613781235346
97,97.088,1148,239,70,261.1,0.0374,69,0.0377,5.1,0.5816,0.2107,0.1016,0.7112,67.5,0.791,35.5,845,0.3,0.03,0.0052,-0.155,0.0113,0.99028712613143
98,98.088,1158,236,70,269.2,0.0414,65,0.0462,7.8,0.5941,0.2204,0.1021,0.7137,61,0.787,34.2,890,0.271,0.029,0.0054,-0.16,0.0112428571428571,0.991456891390555
99,99.058,1168,229,68,276.1,0.0438,67,0.0484,4.9,0.5957,0.2143,0.1031,0.714,65.3,0.792,34.7,888,0.176,0.022,0.005,-0.24,0.0116470588235294,0.993462922628122
100,100.052,1179,231,68,285.9,0.0353,67,0.0366,5.6,0.6026,0.2099,0.1004,0.7228,61.8,0.805,33.7,867,0.294,0.037,0.0054,-0.323,0.0118382352941176,0.988230135671688
101,101.05,1189,234,68,294.6,0.0445,68,0.0474,7.3,0.5995,0.2109,0.1011,0.7093,55.8,0.804,31.8,880,0.309,0.002,0.005,-0.086,0.0118235294117647,0.993667616156203
102,102.033,1198,231,68,294.6,0.0411,68,0.0408,6.7,0.602,0.2187,0.1006,0.7184,57.9,0.828,32.2,880,0.25,0.029,0.0046,-0.139,0.0121764705882353,0.99371697898712
103,103.102,1209,233,66,302.6,0.0478,66,0.0552,5.2,0.6074,0.2003,0.1013,0.716,57.2,0.859,30.8,862,0.121,0.015,0.0046,-0.051,0.0130151515151515,0.995358708030076
104,104.099,1219,236,67,298.1,0.049,65,0.0543,5.1,0.6138,0.2032,0.1016,0.7194,62.6,0.848,31.6,862,0.09,0,0.0049,0.04,0.0126567164179104,0.99498743710662
105,105.049,1229,236,67,301.7,0.0415,64,0.0464,5.5,0.602,0.2083,0.1001,0.7143,61.8,0.852,31.9,857,0.164,0.007,0.0046,-0.014,0.0127164179104478,0.993837887460764
106,106.05,1239,231,65,309.4,0.0327,65,0.0388,4.8,0.5993,0.2116,0.1044,0.7205,64.2,0.878,34.7,860,0.092,0.009,0.004,0.165,0.0135076923076923,0.992490201523272
107,107.028,1249,230,66,312.4,0.0417,63,0.0467,5.6,0.5921,0.2145,0.1067,0.7037,62.6,0.872,33.1,918,0.076,0.034,0.0053,0.132,0.0132121212121212,0.991890123305909
108,108.005,1260,226,66,324.1,0.0403,66,0.0416,7.9,0.5842,0.2092,0.1044,0.6961,60,0.871,33.3,944,0.197,0.008,0.0055,0.017,0.0131969696969697,0.990643318721817
109,109.05,1271,231,67,324.6,0.0375,66,0.0402,3.8,0.5861,0.2142,0.1052,0.7031,61,0.868,33.8,953,0.134,0.008,0.0047,-0.173,0.012955223880597,0.992114688710713
110,110.051,1281,235,67,324.6,0.0382,67,0.0398,4.5,0.5851,0.2064,0.1034,0.696,55.2,0.88,31.5,953,0.179,0.005,0.0046,-0.026,0.013134328358209,0.992723174407651
111,111.05,1292,232,67,323.2,0.0413,67,0.0487,4.1,0.5865,0.2075,0.1093,0.6988,57.1,0.863,32.2,990,0.09,0.022,0.0039,-0.151,0.0128805970149254,0.995531409655606
112,112.051,1302,231,67,322.2,0.0396,67,0.0435,4,0.5918,0.2176,0.1097,0.7034,61.4,0.872,34.2,1009,0.104,0.008,0.004,-0.025,0.0130149253731343,0.994885400181312
113,113.014,1312,233,68,320.9,0.0335,68,0.0407,4.2,0.5886,0.2171,0.1058,0.7073,57.8,0.865,33.4,1025,0.088,0.03,0.0036,-0.052,0.0127205882352941,0.994209118342699
114,114.016,1323,229,68,320.9,0.0297,68,0.0331,4.6,0.5725,0.2166,0.106,0.6987,62.7,0.867,34.8,1025,0.191,0.007,0.0044,-0.059,0.01275,0.988965179468051
115,115.05,1334,236,71,310.8,0.034,69,0.0353,5.4,0.59,0.2137,0.1012,0.7012,56.5,0.842,33.8,1072,0.239,0.021,0.0049,-0.144,0.0118591549295775,0.989560560959373
116,116.05,1344,237,73,318.4,0.0349,70,0.0382,5.7,0.5883,0.2144,0.1026,0.6993,53.6,0.826,33.4,1106,0.178,0.007,0.0053,-0.06,0.0113150684931507,0.988401634950161
117,117.082,1355,242,72,322.2,0.0359,72,0.0393,5.4,0.5863,0.217,0.1019,0.6994,54.2,0.846,32.3,1106,0.208,0.014,0.0048,-0.125,0.01175,0.991021212557038
118,118.084,1365,240,73,318,0.0379,72,0.0487,5.3,0.5891,0.2196,0.1008,0.7015,56.4,0.848,32.5,1139,0.068,0.035,0.0044,-0.073,0.0116164383561644,0.993238115477951
119,119.018,1374,234,74,316.7,0.0401,74,0.0515,4.7,0.5849,0.2101,0.1017,0.6932,58.8,0.857,31.7,1151,0.096,0.014,0.005,0.04,0.0115810810810811,0.992195965021411
120,120.036,1384,240,74,316.7,0.0363,73,0.0408,6.1,0.5799,0.2132,0.1032,0.6913,58.2,0.859,32.2,1151,0.014,0.02,0.0056,-0.108,0.0116081081081081,0.988028732173171
121,121.083,1395,241,74,321.2,0.0359,72,0.0473,5.2,0.5889,0.2111,0.103,0.6989,56.6,0.862,33.7,1160,0.176,0.009,0.0047,-0.304,0.0116486486486486,0.991393039021358
122,122.002,1404,239,71,333.9,0.04,70,0.047,5.4,0.5883,0.2114,0.103,0.6971,54.7,0.912,32.6,1132,0.085,0.007,0.0055,-0.207,0.0128450704225352,0.990501766782877
123,123.051,1415,237,71,345.4,0.0328,70,0.0382,5.4,0.5745,0.2103,0.1016,0.6926,58,0.906,33.1,1141,0.211,0.014,0.0045,-0.053,0.0127605633802817,0.990544041682544
124,124.052,1425,245,72,340.7,0.0303,70,0.0363,4.1,0.5827,0.2088,0.1022,0.6957,59.5,0.9,33,1173,0.042,0.027,0.0039,-0.085,0.0125,0.991681903013775
125,125.019,1435,237,73,349.2,0.0315,71,0.0386,5.3,0.584,0.2032,0.101,0.6927,53.3,0.843,31.5,1223,0.192,0.007,0.0047,-0.029,0.0115479452054795,0.988806080764329
126,126.072,1445,237,74,344.6,0.0316,74,0.0371,4.3,0.5822,0.2085,0.1017,0.6898,54.5,0.853,32.7,1213,0.162,0.02,0.004,-0.046,0.011527027027027,0.991956111314687
127,127.014,1455,242,74,344.6,0.0285,74,0.0369,3.9,0.585,0.2133,0.1079,0.6853,49.4,0.861,31.8,1213,0.149,0,0.003,-0.147,0.0116351351351351,0.994444401457431
128,128.085,1466,241,74,346.1,0.0351,73,0.0441,5.4,0.5877,0.2021,0.1,0.6891,48.6,0.879,29.7,1221,0.257,0.005,0.0043,-0.01,0.0118783783783784,0.992467634200242
129,129.061,1476,241,74,344.6,0.0352,72,0.045,3.4,0.5901,0.2016,0.0982,0.6918,53,0.879,30,1255,0.203,0,0.0039,-0.14,0.0118783783783784,0.993843230722062
130,130.05,1486,242,73,349.3,0.0353,73,0.0432,3.6,0.5902,0.1929,0.0976,0.6921,52,0.904,29.8,1255,0.164,0.034,0.0032,-0.102,0.0123835616438356,0.995882671311646
